-6.095
-6.095
-6.1
-6.1
-6.095
-6.095
-6.1
-6.105
-6.105
-6.115
-6.105
-6.1
-6.095
-6.09
-6.08
-6.075
-6.065
-6.06
-6.035
-6.015
-6
-5.975
-5.955
-5.92
-5.89
-5.865
-5.83
-5.805
-5.775
-5.75
-5.725
-5.705
-5.695
-5.68
-5.67
-5.655
-5.64
-5.635
-5.635
-5.64
-5.64
-5.64
-5.65
-5.66
-5.68
-5.7
-5.71
-5.71
-5.715
-5.72
-5.73
-5.735
-5.74
-5.77
-5.78
-5.775
-5.78
-5.79
-5.785
-5.79
-5.8
-5.81
-5.815
-5.8
-5.805
-5.815
-5.82
-5.82
-5.82
-5.825
-5.82
-5.83
-5.83
-5.82
-5.81
-5.815
-5.82
-5.82
-5.815
-5.815
-5.8
-5.79
-5.78
-5.77
-5.76
-5.755
-5.76
-5.765
-5.76
-5.76
-5.75
-5.74
-5.72
-5.7
-5.69
-5.695
-5.7
-5.695
-5.7
-5.71
-5.71
-5.72
-5.735
-5.755
-5.775
-5.79
-5.8
-5.825
-5.84
-5.845
-5.85
-5.86
-5.875
-5.865
-5.86
-5.855
-5.84
-5.84
-5.84
-5.84
-5.835
-5.855
-5.855
-5.815
-5.695
-5.555
-5.345
-5.015
-4.62
-4.265
-4.055
-3.985
-4
-4.175
-4.455
-4.87
-5.32
-5.775
-6.1
-6.245
-6.245
-6.245
-6.245
-6.245
-6.21
-6.155
-6.105
-6.07
-6.065
-6.06
-6.045
-6.02
-6.01
-6.005
-6.015
-6.015
-6.01
-6.01
-6.01
-6.01
-6
-5.985
-5.98
-5.975
-5.96
-5.96
-5.94
-5.905
-5.875
-5.865
-5.825
-5.77
-5.73
-5.69
-5.655
-5.62
-5.61
-5.585
-5.57
-5.55
-5.52
-5.485
-5.465
-5.46
-5.465
-5.48
-5.5
-5.52
-5.53
-5.55
-5.565
-5.575
-5.595
-5.61
-5.635
-5.66
-5.695
-5.72
-5.725
-5.75
-5.76
-5.775
-5.785
-5.8
-5.8
-5.81
-5.81
-5.825
-5.845
-5.865
-5.87
-5.86
-5.87
-5.865
-5.875
-5.87
-5.875
-5.88
-5.87
-5.86
-5.85
-5.845
-5.84
-5.83
-5.82
-5.81
-5.81
-5.805
-5.805
-5.8
-5.8
-5.795
-5.785
-5.76
-5.75
-5.75
-5.745
-5.755
-5.755
-5.74
-5.72
-5.705
-5.69
-5.69
-5.7
-5.715
-5.715
-5.715
-5.72
-5.74
-5.76
-5.78
-5.795
-5.815
-5.835
-5.86
-5.89
-5.89
-5.88
-5.885
-5.885
-5.89
-5.895
-5.885
-5.885
-5.88
-5.875
-5.87
-5.88
-5.895
-5.9
-5.855
-5.735
-5.595
-5.4
-5.105
-4.71
-4.34
-4.105
-4.01
-4.02
-4.2
-4.505
-4.935
-5.395
-5.84
-6.15
-6.25
-6.24
-6.24
-6.235
-6.215
-6.17
-6.12
-6.085
-6.075
-6.065
-6.06
-6.055
-6.055
-6.055
-6.05
-6.045
-6.035
-6.03
-6.025
-6.015
-6.015
-6.005
-6
-5.99
-5.99
-5.97
-5.955
-5.94
-5.915
-5.885
-5.865
-5.84
-5.8
-5.765
-5.725
-5.68
-5.635
-5.615
-5.58
-5.56
-5.545
-5.52
-5.515
-5.505
-5.51
-5.505
-5.5
-5.51
-5.52
-5.54
-5.55
-5.565
-5.58
-5.6
-5.62
-5.64
-5.665
-5.69
-5.71
-5.725
-5.74
-5.755
-5.765
-5.775
-5.78
-5.79
-5.8
-5.81
-5.815
-5.81
-5.815
-5.82
-5.835
-5.835
-5.835
-5.835
-5.835
-5.83
-5.825
-5.82
-5.81
-5.81
-5.805
-5.805
-5.8
-5.795
-5.785
-5.77
-5.76
-5.76
-5.76
-5.745
-5.735
-5.725
-5.715
-5.695
-5.685
-5.68
-5.68
-5.68
-5.68
-5.67
-5.65
-5.63
-5.625
-5.635
-5.635
-5.635
-5.635
-5.64
-5.66
-5.68
-5.7
-5.715
-5.725
-5.74
-5.76
-5.78
-5.795
-5.805
-5.825
-5.845
-5.865
-5.895
-5.92
-5.925
-5.885
-5.805
-5.705
-5.58
-5.425
-5.23
-4.97
-4.65
-4.36
-4.14
-4
-3.94
-3.96
-4.075
-4.34
-4.8
-5.27
-5.64
-5.835
-6.005
-6.13
-6.2
-6.215
-6.165
-6.075
-6.025
-6.005
-6.005
-6.005
-6.005
-6.005
-6.015
-6.015
-6.02
-6.025
-6.035
-6.045
-6.045
-6.05
-6.05
-6.055
-6.06
-6.065
-6.065
-6.07
-6.07
-6.065
-6.065
-6.055
-6.045
-6.035
-6.01
-5.99
-5.965
-5.935
-5.905
-5.88
-5.85
-5.825
-5.795
-5.76
-5.735
-5.7
-5.68
-5.66
-5.64
-5.635
-5.625
-5.625
-5.615
-5.61
-5.615
-5.615
-5.62
-5.615
-5.625
-5.63
-5.635
-5.64
-5.655
-5.66
-5.67
-5.68
-5.69
-5.7
-5.715
-5.72
-5.735
-5.74
-5.75
-5.755
-5.76
-5.765
-5.775
-5.785
-5.795
-5.8
-5.8
-5.8
-5.8
-5.8
-5.8
-5.8
-5.795
-5.795
-5.79
-5.785
-5.785
-5.78
-5.78
-5.77
-5.77
-5.76
-5.755
-5.74
-5.73
-5.72
-5.705
-5.695
-5.69
-5.69
-5.7
-5.69
-5.68
-5.655
-5.635
-5.62
-5.625
-5.63
-5.63
-5.63
-5.635
-5.645
-5.665
-5.685
-5.7
-5.725
-5.75
-5.76
-5.79
-5.805
-5.81
-5.81
-5.815
-5.815
-5.815
-5.81
-5.805
-5.8
-5.8
-5.805
-5.805
-5.805
-5.825
-5.835
-5.785
-5.665
-5.525
-5.36
-5.06
-4.665
-4.3
-4.08
-4
-4.04
-4.24
-4.555
-4.965
-5.44
-5.855
-6.115
-6.19
-6.18
-6.18
-6.17
-6.13
-6.07
-6.015
-5.985
-5.98
-5.975
-5.97
-5.97
-5.96
-5.955
-5.955
-5.96
-5.96
-5.96
-5.96
-5.955
-5.95
-5.945
-5.94
-5.93
-5.915
-5.895
-5.88
-5.855
-5.825
-5.795
-5.76
-5.73
-5.695
-5.66
-5.625
-5.59
-5.56
-5.535
-5.515
-5.495
-5.465
-5.445
-5.43
-5.415
-5.405
-5.4
-5.4
-5.41
-5.425
-5.44
-5.46
-5.475
-5.495
-5.52
-5.55
-5.575
-5.6
-5.62
-5.645
-5.665
-5.685
-5.7
-5.72
-5.735
-5.75
-5.765
-5.775
-5.79
-5.805
-5.815
-5.82
-5.825
-5.83
-5.835
-5.835
-5.835
-5.835
-5.83
-5.82
-5.82
-5.82
-5.815
-5.805
-5.805
-5.8
-5.8
-5.795
-5.79
-5.78
-5.765
-5.75
-5.74
-5.73
-5.725
-5.725
-5.725
-5.71
-5.695
-5.67
-5.645
-5.635
-5.635
-5.645
-5.645
-5.645
-5.65
-5.66
-5.675
-5.69
-5.71
-5.73
-5.755
-5.78
-5.8
-5.82
-5.835
-5.84
-5.85
-5.855
-5.855
-5.86
-5.865
-5.87
-5.87
-5.87
-5.865
-5.86
-5.87
-5.885
-5.89
-5.825
-5.695
-5.555
-5.355
-5.03
-4.63
-4.3
-4.12
-4.08
-4.135
-4.355
-4.665
-5.08
-5.525
-5.93
-6.2
-6.3
-6.285
-6.28
-6.28
-6.255
-6.19
-6.12
-6.065
-6.045
-6.04
-6.035
-6.03
-6.025
-6.025
-6.03
-6.03
-6.025
-6.02
-6.02
-6.02
-6.015
-6.015
-6
-5.995
-5.98
-5.965
-5.945
-5.93
-5.91
-5.88
-5.85
-5.82
-5.795
-5.755
-5.72
-5.685
-5.66
-5.625
-5.6
-5.58
-5.565
-5.55
-5.54
-5.535
-5.53
-5.53
-5.53
-5.54
-5.555
-5.57
-5.58
-5.6
-5.625
-5.64
-5.66
-5.67
-5.69
-5.715
-5.73
-5.75
-5.77
-5.785
-5.8
-5.815
-5.825
-5.835
-5.84
-5.85
-5.855
-5.865
-5.875
-5.88
-5.885
-5.89
-5.885
-5.88
-5.895
-5.895
-5.905
-5.915
-5.915
-5.9
-5.89
-5.88
-5.875
-5.87
-5.865
-5.86
-5.85
-5.84
-5.83
-5.82
-5.805
-5.8
-5.795
-5.79
-5.795
-5.8
-5.79
-5.77
-5.745
-5.73
-5.73
-5.73
-5.72
-5.73
-5.735
-5.74
-5.755
-5.775
-5.785
-5.8
-5.825
-5.845
-5.865
-5.88
-5.89
-5.89
-5.895
-5.905
-5.9
-5.895
-5.895
-5.895
-5.9
-5.905
-5.91
-5.91
-5.92
-5.955
-5.945
-5.865
-5.73
-5.575
-5.34
-4.99
-4.6
-4.29
-4.14
-4.1
-4.17
-4.39
-4.73
-5.17
-5.635
-6.015
-6.25
-6.31
-6.3
-6.3
-6.3
-6.27
-6.22
-6.165
-6.12
-6.105
-6.11
-6.105
-6.095
-6.07
-6.055
-6.05
-6.045
-6.04
-6.03
-6.025
-6.02
-6.02
-6.01
-6
-6
-5.985
-5.97
-5.945
-5.92
-5.895
-5.87
-5.84
-5.81
-5.78
-5.745
-5.715
-5.695
-5.67
-5.64
-5.62
-5.59
-5.575
-5.56
-5.555
-5.545
-5.535
-5.54
-5.545
-5.54
-5.555
-5.57
-5.6
-5.615
-5.63
-5.65
-5.665
-5.685
-5.715
-5.735
-5.755
-5.78
-5.805
-5.82
-5.83
-5.825
-5.825
-5.835
-5.845
-5.855
-5.87
-5.88
-5.885
-5.89
-5.895
-5.885
-5.87
-5.87
-5.87
-5.87
-5.875
-5.875
-5.87
-5.86
-5.85
-5.84
-5.84
-5.845
-5.85
-5.835
-5.825
-5.815
-5.805
-5.795
-5.785
-5.78
-5.785
-5.78
-5.76
-5.72
-5.7
-5.695
-5.71
-5.71
-5.71
-5.715
-5.74
-5.755
-5.77
-5.79
-5.815
-5.835
-5.845
-5.88
-5.89
-5.905
-5.92
-5.91
-5.905
-5.895
-5.9
-5.9
-5.9
-5.9
-5.9
-5.89
-5.885
-5.89
-5.91
-5.915
-5.865
-5.745
-5.6
-5.395
-5.075
-4.67
-4.325
-4.135
-4.075
-4.125
-4.335
-4.68
-5.12
-5.58
-5.98
-6.24
-6.3
-6.29
-6.295
-6.28
-6.26
-6.2
-6.145
-6.105
-6.09
-6.085
-6.085
-6.085
-6.095
-6.095
-6.095
-6.085
-6.08
-6.07
-6.065
-6.07
-6.065
-6.05
-6.035
-6.015
-6.005
-5.99
-5.97
-5.945
-5.92
-5.88
-5.845
-5.805
-5.77
-5.735
-5.71
-5.7
-5.675
-5.64
-5.61
-5.59
-5.58
-5.58
-5.575
-5.565
-5.56
-5.56
-5.565
-5.58
-5.595
-5.615
-5.63
-5.64
-5.66
-5.68
-5.7
-5.715
-5.725
-5.755
-5.78
-5.805
-5.815
-5.815
-5.825
-5.84
-5.85
-5.875
-5.88
-5.885
-5.905
-5.9
-5.9
-5.895
-5.895
-5.91
-5.905
-5.9
-5.905
-5.905
-5.89
-5.88
-5.88
-5.875
-5.86
-5.865
-5.865
-5.865
-5.855
-5.84
-5.83
-5.805
-5.8
-5.785
-5.775
-5.775
-5.78
-5.78
-5.755
-5.74
-5.715
-5.71
-5.72
-5.715
-5.72
-5.73
-5.74
-5.755
-5.775
-5.79
-5.8
-5.81
-5.835
-5.85
-5.88
-5.89
-5.89
-5.89
-5.9
-5.905
-5.9
-5.905
-5.92
-5.915
-5.9
-5.89
-5.89
-5.895
-5.91
-5.905
-5.855
-5.705
-5.565
-5.335
-4.985
-4.595
-4.25
-4.07
-4.01
-4.08
-4.3
-4.64
-5.08
-5.55
-5.955
-6.2
-6.25
-6.24
-6.245
-6.24
-6.21
-6.175
-6.135
-6.11
-6.09
-6.09
-6.07
-6.065
-6.065
-6.07
-6.06
-6.05
-6.055
-6.05
-6.045
-6.035
-6.025
-6.025
-6.03
-6.03
-6.02
-6
-5.98
-5.96
-5.935
-5.905
-5.88
-5.845
-5.815
-5.78
-5.75
-5.715
-5.675
-5.635
-5.61
-5.585
-5.565
-5.55
-5.535
-5.525
-5.525
-5.525
-5.535
-5.555
-5.565
-5.575
-5.59
-5.605
-5.625
-5.64
-5.67
-5.695
-5.72
-5.74
-5.755
-5.77
-5.775
-5.785
-5.8
-5.81
-5.82
-5.82
-5.825
-5.84
-5.85
-5.86
-5.86
-5.865
-5.87
-5.875
-5.88
-5.88
-5.88
-5.87
-5.87
-5.875
-5.875
-5.87
-5.865
-5.855
-5.845
-5.84
-5.825
-5.82
-5.81
-5.805
-5.785
-5.77
-5.76
-5.74
-5.74
-5.74
-5.735
-5.73
-5.72
-5.7
-5.68
-5.67
-5.67
-5.675
-5.675
-5.67
-5.685
-5.695
-5.71
-5.73
-5.75
-5.77
-5.785
-5.815
-5.84
-5.86
-5.86
-5.85
-5.855
-5.86
-5.86
-5.87
-5.875
-5.865
-5.86
-5.86
-5.85
-5.85
-5.87
-5.885
-5.865
-5.775
-5.64
-5.48
-5.215
-4.825
-4.425
-4.13
-3.985
-3.955
-4.065
-4.315
-4.68
-5.14
-5.6
-5.975
-6.19
-6.215
-6.2
-6.2
-6.19
-6.155
-6.1
-6.045
-6.03
-6.025
-6.02
-6.015
-6.015
-6.015
-6.015
-6.01
-6
-5.995
-5.99
-5.99
-5.99
-5.99
-5.98
-5.975
-5.965
-5.955
-5.935
-5.92
-5.9
-5.88
-5.86
-5.82
-5.79
-5.765
-5.73
-5.695
-5.66
-5.625
-5.6
-5.58
-5.56
-5.535
-5.51
-5.49
-5.48
-5.47
-5.47
-5.465
-5.465
-5.48
-5.49
-5.505
-5.52
-5.53
-5.55
-5.575
-5.6
-5.625
-5.65
-5.67
-5.69
-5.71
-5.715
-5.735
-5.745
-5.76
-5.765
-5.78
-5.79
-5.785
-5.795
-5.8
-5.8
-5.81
-5.815
-5.815
-5.81
-5.805
-5.81
-5.82
-5.82
-5.82
-5.815
-5.81
-5.81
-5.805
-5.8
-5.8
-5.795
-5.79
-5.785
-5.78
-5.77
-5.76
-5.745
-5.73
-5.71
-5.71
-5.7
-5.7
-5.7
-5.695
-5.68
-5.655
-5.64
-5.635
-5.64
-5.645
-5.65
-5.655
-5.655
-5.665
-5.68
-5.7
-5.72
-5.735
-5.76
-5.775
-5.8
-5.82
-5.825
-5.83
-5.83
-5.83
-5.83
-5.835
-5.84
-5.84
-5.835
-5.83
-5.825
-5.83
-5.84
-5.865
-5.845
-5.76
-5.62
-5.46
-5.215
-4.845
-4.445
-4.15
-4.005
-3.98
-4.08
-4.31
-4.675
-5.11
-5.57
-5.955
-6.165
-6.2
-6.19
-6.185
-6.18
-6.14
-6.09
-6.04
-6.01
-6.01
-6.005
-6
-6
-6
-5.995
-5.99
-5.995
-6
-6
-5.995
-5.99
-5.98
-5.97
-5.965
-5.96
-5.955
-5.94
-5.92
-5.9
-5.88
-5.86
-5.835
-5.8
-5.76
-5.735
-5.7
-5.67
-5.64
-5.61
-5.585
-5.56
-5.54
-5.52
-5.51
-5.485
-5.475
-5.465
-5.465
-5.47
-5.475
-5.49
-5.505
-5.525
-5.545
-5.565
-5.59
-5.61
-5.635
-5.65
-5.675
-5.695
-5.71
-5.73
-5.745
-5.76
-5.775
-5.785
-5.8
-5.81
-5.81
-5.82
-5.825
-5.825
-5.83
-5.84
-5.84
-5.835
-5.835
-5.835
-5.835
-5.83
-5.825
-5.825
-5.815
-5.815
-5.815
-5.81
-5.805
-5.8
-5.79
-5.785
-5.785
-5.78
-5.775
-5.76
-5.745
-5.72
-5.71
-5.7
-5.7
-5.705
-5.7
-5.685
-5.66
-5.64
-5.635
-5.64
-5.64
-5.645
-5.655
-5.66
-5.68
-5.695
-5.705
-5.725
-5.75
-5.77
-5.795
-5.82
-5.84
-5.84
-5.84
-5.84
-5.84
-5.84
-5.84
-5.84
-5.84
-5.835
-5.835
-5.83
-5.835
-5.85
-5.86
-5.825
-5.72
-5.58
-5.42
-5.15
-4.76
-4.37
-4.115
-4.01
-4.01
-4.17
-4.45
-4.84
-5.29
-5.74
-6.055
-6.2
-6.195
-6.195
-6.19
-6.165
-6.115
-6.055
-6.01
-6
-5.995
-5.99
-5.99
-5.99
-5.985
-5.985
-5.98
-5.975
-5.97
-5.965
-5.965
-5.965
-5.955
-5.945
-5.935
-5.925
-5.91
-5.89
-5.875
-5.855
-5.835
-5.81
-5.785
-5.75
-5.715
-5.68
-5.65
-5.62
-5.59
-5.56
-5.535
-5.51
-5.49
-5.48
-5.47
-5.465
-5.455
-5.45
-5.45
-5.46
-5.47
-5.485
-5.5
-5.52
-5.54
-5.565
-5.585
-5.61
-5.635
-5.66
-5.68
-5.705
-5.72
-5.745
-5.76
-5.77
-5.78
-5.79
-5.8
-5.805
-5.82
-5.82
-5.83
-5.835
-5.84
-5.84
-5.84
-5.84
-5.84
-5.845
-5.845
-5.84
-5.84
-5.84
-5.84
-5.84
-5.835
-5.83
-5.83
-5.82
-5.82
-5.815
-5.805
-5.8
-5.78
-5.765
-5.76
-5.75
-5.74
-5.74
-5.74
-5.725
-5.71
-5.685
-5.67
-5.67
-5.68
-5.68
-5.68
-5.685
-5.69
-5.7
-5.72
-5.735
-5.75
-5.775
-5.8
-5.82
-5.84
-5.85
-5.86
-5.865
-5.875
-5.88
-5.88
-5.88
-5.875
-5.875
-5.87
-5.87
-5.87
-5.875
-5.895
-5.89
-5.815
-5.69
-5.555
-5.35
-5.015
-4.615
-4.265
-4.075
-4.025
-4.105
-4.345
-4.68
-5.115
-5.575
-5.97
-6.205
-6.265
-6.255
-6.245
-6.235
-6.195
-6.13
-6.075
-6.04
-6.04
-6.035
-6.025
-6.02
-6.01
-6.005
-6
-6
-5.995
-5.99
-5.985
-5.98
-5.98
-5.98
-5.975
-5.965
-5.96
-5.945
-5.925
-5.905
-5.875
-5.845
-5.815
-5.78
-5.75
-5.72
-5.68
-5.655
-5.625
-5.6
-5.58
-5.555
-5.54
-5.52
-5.505
-5.495
-5.485
-5.48
-5.48
-5.49
-5.5
-5.515
-5.525
-5.54
-5.555
-5.575
-5.595
-5.62
-5.645
-5.67
-5.69
-5.705
-5.725
-5.745
-5.76
-5.775
-5.79
-5.8
-5.81
-5.815
-5.825
-5.83
-5.835
-5.84
-5.84
-5.845
-5.86
-5.86
-5.86
-5.865
-5.865
-5.865
-5.86
-5.85
-5.845
-5.84
-5.84
-5.835
-5.825
-5.82
-5.815
-5.8
-5.795
-5.77
-5.76
-5.76
-5.75
-5.755
-5.75
-5.745
-5.735
-5.71
-5.69
-5.685
-5.69
-5.685
-5.68
-5.675
-5.685
-5.695
-5.715
-5.73
-5.745
-5.765
-5.79
-5.81
-5.835
-5.85
-5.86
-5.86
-5.86
-5.87
-5.875
-5.875
-5.875
-5.87
-5.87
-5.87
-5.875
-5.88
-5.89
-5.915
-5.905
-5.825
-5.69
-5.55
-5.33
-4.98
-4.575
-4.245
-4.07
-4.025
-4.135
-4.385
-4.74
-5.165
-5.615
-6
-6.23
-6.28
-6.275
-6.265
-6.27
-6.235
-6.18
-6.12
-6.08
-6.07
-6.06
-6.04
-6.03
-6.02
-6.01
-6.005
-6
-5.995
-6
-6
-5.99
-5.985
-5.985
-5.97
-5.96
-5.945
-5.935
-5.92
-5.895
-5.875
-5.85
-5.82
-5.795
-5.76
-5.73
-5.705
-5.67
-5.645
-5.61
-5.585
-5.565
-5.55
-5.535
-5.52
-5.52
-5.52
-5.515
-5.52
-5.52
-5.53
-5.54
-5.55
-5.565
-5.58
-5.6
-5.62
-5.64
-5.67
-5.69
-5.71
-5.735
-5.755
-5.77
-5.78
-5.79
-5.795
-5.805
-5.815
-5.82
-5.83
-5.835
-5.84
-5.85
-5.85
-5.855
-5.855
-5.86
-5.86
-5.86
-5.86
-5.86
-5.855
-5.855
-5.85
-5.85
-5.85
-5.85
-5.85
-5.845
-5.83
-5.82
-5.8
-5.795
-5.785
-5.785
-5.785
-5.77
-5.75
-5.725
-5.705
-5.7
-5.705
-5.715
-5.72
-5.715
-5.73
-5.74
-5.76
-5.775
-5.79
-5.805
-5.83
-5.85
-5.87
-5.89
-5.895
-5.885
-5.88
-5.88
-5.88
-5.88
-5.88
-5.88
-5.88
-5.88
-5.875
-5.875
-5.89
-5.91
-5.895
-5.8
-5.67
-5.525
-5.28
-4.905
-4.51
-4.22
-4.085
-4.075
-4.23
-4.5
-4.88
-5.315
-5.76
-6.09
-6.28
-6.295
-6.28
-6.28
-6.265
-6.215
-6.155
-6.095
-6.065
-6.065
-6.06
-6.055
-6.05
-6.04
-6.035
-6.035
-6.035
-6.025
-6.02
-6.02
-6.01
-5.995
-5.99
-5.975
-5.955
-5.93
-5.92
-5.91
-5.895
-5.88
-5.84
-5.8
-5.765
-5.735
-5.705
-5.67
-5.64
-5.61
-5.58
-5.56
-5.54
-5.52
-5.515
-5.5
-5.495
-5.49
-5.495
-5.5
-5.515
-5.525
-5.54
-5.555
-5.57
-5.585
-5.605
-5.625
-5.645
-5.665
-5.685
-5.705
-5.725
-5.745
-5.76
-5.775
-5.79
-5.8
-5.815
-5.825
-5.83
-5.84
-5.84
-5.845
-5.85
-5.85
-5.85
-5.845
-5.84
-5.835
-5.83
-5.825
-5.82
-5.815
-5.805
-5.805
-5.8
-5.79
-5.78
-5.76
-5.745
-5.74
-5.735
-5.74
-5.74
-5.735
-5.72
-5.695
-5.68
-5.665
-5.67
-5.68
-5.685
-5.68
-5.69
-5.705
-5.72
-5.74
-5.76
-5.765
-5.795
-5.81
-5.84
-5.86
-5.87
-5.875
-5.875
-5.875
-5.88
-5.885
-5.885
-5.875
-5.87
-5.875
-5.89
-5.875
-5.89
-5.91
-5.89
-5.795
-5.66
-5.52
-5.315
-4.98
-4.585
-4.255
-4.08
-4.04
-4.14
-4.385
-4.73
-5.16
-5.615
-5.995
-6.22
-6.27
-6.255
-6.25
-6.245
-6.205
-6.15
-6.09
-6.055
-6.055
-6.055
-6.045
-6.04
-6.025
-6.02
-6.01
-6
-5.995
-5.985
-5.985
-5.975
-5.965
-5.96
-5.95
-5.935
-5.93
-5.91
-5.895
-5.88
-5.86
-5.83
-5.8
-5.775
-5.745
-5.71
-5.68
-5.655
-5.625
-5.59
-5.56
-5.54
-5.525
-5.51
-5.5
-5.485
-5.49
-5.49
-5.49
-5.495
-5.51
-5.525
-5.54
-5.555
-5.57
-5.59
-5.605
-5.625
-5.65
-5.67
-5.695
-5.72
-5.74
-5.765
-5.785
-5.8
-5.815
-5.825
-5.83
-5.835
-5.84
-5.84
-5.845
-5.85
-5.85
-5.85
-5.855
-5.855
-5.855
-5.85
-5.845
-5.84
-5.835
-5.83
-5.825
-5.815
-5.8
-5.78
-5.775
-5.77
-5.76
-5.755
-5.74
-5.73
-5.705
-5.685
-5.665
-5.66
-5.67
-5.67
-5.665
-5.67
-5.68
-5.695
-5.715
-5.735
-5.755
